# AS22368 - TELEBUCARAMANGA S.A. E.S.P.
152.200.204.0/24
170.80.8.0/23
170.80.10.0/23
181.174.0.0/23
181.174.2.0/23
181.174.4.0/23
181.174.6.0/23
181.174.16.0/24
181.174.17.0/24
181.174.30.0/23
181.174.34.0/24
181.174.54.0/24
181.174.55.0/24
181.174.56.0/23
181.174.57.0/24
181.174.58.0/23
181.174.60.0/24
181.174.61.0/24
181.236.176.0/23
181.236.192.0/23
181.236.224.0/24
181.236.224.0/23
181.236.225.0/24
181.236.246.0/23
181.236.250.0/23
186.183.138.0/23
186.183.140.0/24
186.183.141.0/24
186.183.142.0/23
186.183.150.0/23
186.183.158.0/24
186.183.159.0/24
186.183.164.0/24
186.183.165.0/24
186.183.178.0/24
186.183.179.0/24
186.183.180.0/23
186.183.182.0/23
186.183.184.0/23
186.183.196.0/23
186.183.198.0/23
186.183.208.0/23
186.183.210.0/23
186.183.212.0/23
186.183.218.0/24
186.183.219.0/24
186.183.220.0/23
186.183.226.0/23
186.183.236.0/23
186.183.248.0/24
186.183.249.0/24
186.183.250.0/24
186.183.251.0/24
190.96.160.0/19
190.96.161.0/24
190.96.168.0/24
190.96.172.0/24
190.96.175.0/24
190.96.176.0/23
190.96.178.0/23
190.96.180.0/22
190.96.192.0/24
190.96.192.0/21
190.96.193.0/24
190.96.194.0/23
190.96.196.0/23
190.96.198.0/23
190.96.208.0/23
190.96.208.0/20
190.96.214.0/24
190.96.215.0/24
190.96.216.0/21
190.96.217.0/24
190.96.218.0/23
190.96.220.0/23
190.96.222.0/23
190.124.96.0/23
190.124.96.0/21
190.124.98.0/24
190.124.99.0/24
190.124.100.0/24
190.124.101.0/24
190.124.102.0/24
190.124.106.0/23
190.124.108.0/22
190.124.112.0/22
190.124.124.0/23
190.124.126.0/23
190.184.128.0/18
190.184.136.0/24
190.184.137.0/24
190.184.138.0/24
190.184.144.0/24
190.184.145.0/24
190.184.146.0/24
190.184.147.0/24
190.184.168.0/24
190.184.169.0/24
190.184.170.0/24
190.184.171.0/24
190.184.172.0/24
190.184.173.0/24
190.184.174.0/24
190.184.175.0/24
190.184.184.0/24
190.184.185.0/24
190.184.186.0/23
190.252.104.0/24
200.69.127.0/24
200.93.150.0/24
200.93.151.0/24
200.119.1.0/24
201.221.128.0/24
201.221.129.0/24
201.221.131.0/24
201.221.132.0/24
201.221.133.0/24
201.221.134.0/24
201.221.135.0/24
201.221.136.0/24
201.221.137.0/24
201.221.138.0/24
201.221.139.0/24
201.221.140.0/24
201.221.141.0/24
201.221.143.0/24
201.221.144.0/24
201.221.145.0/24
201.221.146.0/24
201.221.148.0/24
201.221.151.0/24
201.221.153.0/24
201.221.155.0/24
201.221.157.0/24
201.221.158.0/24
201.221.159.0/24
